,distance_nose_leftdish,distance_nose_rightdish,is_investigating_leftdish,is_investigating_rightdish,petridish_investigation_radius[cm]
0,539.0767102594771,203.55785099490163,0.0,0.0,2.2
1,502.29406499699655,239.18655989812035,0.0,0.0,2.2
2,474.5545259840493,266.3553015919464,0.0,0.0,2.2
3,439.26268016016564,298.8383696061937,0.0,0.0,2.2
4,410.662370310273,327.2439958678347,0.0,0.0,2.2
5,379.91638043155183,358.58531574168956,0.0,0.0,2.2
6,353.78942989765375,385.36761176191345,0.0,0.0,2.2
7,333.34340538983224,407.7272367562341,0.0,0.0,2.2
8,312.58813686876584,430.57412945744727,0.0,0.0,2.2
9,294.6434602714296,450.56408328425243,0.0,0.0,2.2
10,266.7296367482804,480.47281076922275,0.0,0.0,2.2
11,250.20771834356688,502.8982219949295,0.0,0.0,2.2
12,235.53100446563553,521.1837147078297,0.0,0.0,2.2
13,217.3570226934917,543.1813153298987,0.0,0.0,2.2
14,204.59983103735897,559.461065148822,0.0,0.0,2.2
15,189.99991229034308,575.675401967158,0.0,0.0,2.2
16,177.7438129487315,590.5625765371689,0.0,0.0,2.2
17,171.4119451067452,606.2150553569288,0.0,0.0,2.2
18,169.77035854350538,619.4991348726509,0.0,0.0,2.2
19,174.9456217120065,629.9249979257385,0.0,0.0,2.2
20,197.70054760423415,634.9870726582641,0.0,0.0,2.2
21,213.30133431020573,645.0366725202837,0.0,0.0,2.2
22,227.76883183907586,653.5799683559436,0.0,0.0,2.2
23,253.9887544434519,660.6668530531551,0.0,0.0,2.2
24,269.4849908110411,668.044544167061,0.0,0.0,2.2
25,281.4180723109212,679.1391696080551,0.0,0.0,2.2
26,290.92007443775884,695.9167186235411,0.0,0.0,2.2
27,295.41989987255903,707.8086351199795,0.0,0.0,2.2
28,294.42943858968516,722.4328108503902,0.0,0.0,2.2
29,298.3598000142144,737.0425278229328,0.0,0.0,2.2
30,296.9214429792483,752.7003713974877,0.0,0.0,2.2
31,296.50977576216087,776.3660475616555,0.0,0.0,2.2
32,303.8125557034844,799.7838082954396,0.0,0.0,2.2
33,323.6718449703355,827.1075515585118,0.0,0.0,2.2
34,341.457761532237,853.9691415255628,0.0,0.0,2.2
35,365.7945361743885,879.4605979074441,0.0,0.0,2.2
36,375.77074385476163,894.7769996742094,0.0,0.0,2.2
37,386.0421699374312,910.7922051815548,0.0,0.0,2.2
38,397.9553957235484,919.5457681693571,0.0,0.0,2.2
39,398.95042180993414,918.8923942832163,0.0,0.0,2.2
40,386.74110597860306,894.2351450156597,0.0,0.0,2.2
41,371.07014992773577,865.8863039427514,0.0,0.0,2.2
42,371.75888861313285,851.7224534501908,0.0,0.0,2.2
43,366.8225017485581,835.5313403116506,0.0,0.0,2.2
44,353.9004258630121,803.2905199799501,0.0,0.0,2.2
45,346.0417508116395,760.4527921799535,0.0,0.0,2.2
46,344.3692693934784,730.0308109108057,0.0,0.0,2.2
47,353.94823195545297,699.5546829767228,0.0,0.0,2.2
48,365.29571660099543,668.8377054001148,0.0,0.0,2.2
49,372.6215426758167,656.3869616045691,0.0,0.0,2.2
50,378.1151969075754,642.2322981005254,0.0,0.0,2.2
51,387.3814311114894,629.604195911187,0.0,0.0,2.2
52,405.78813537276574,620.034016825302,0.0,0.0,2.2
53,418.6570027220334,613.7167164482885,0.0,0.0,2.2
54,442.11980125628224,600.5000784643141,0.0,0.0,2.2
55,459.49409114646016,579.5892526659156,0.0,0.0,2.2
56,465.86938673650826,566.2511967288361,0.0,0.0,2.2
57,472.0590076564592,548.1350601336657,0.0,0.0,2.2
58,,,0.0,0.0,2.2
59,,,0.0,0.0,2.2
60,509.7041588117458,469.0413924155839,0.0,0.0,2.2
61,525.1339627780778,448.1644502217863,0.0,0.0,2.2
62,541.4134510660247,437.27290457186166,0.0,0.0,2.2
63,560.609536893229,411.5647798138526,0.0,0.0,2.2
64,574.8269134846331,387.66836166592674,0.0,0.0,2.2
65,600.2462033191468,362.4926441777457,0.0,0.0,2.2
66,623.9474043324832,334.87418173562526,0.0,0.0,2.2
67,637.4553120522324,316.7531879130518,0.0,0.0,2.2
68,661.1180700541552,293.8148851874485,0.0,0.0,2.2
69,690.0116715439755,279.9468649356278,0.0,0.0,2.2
70,719.7046379820391,277.46262706431213,0.0,0.0,2.2
71,746.0838767479618,276.0769904760122,0.0,0.0,2.2
72,761.9428000096298,263.58020670694935,0.0,0.0,2.2
73,794.3025643468176,257.6749538288929,0.0,0.0,2.2
74,,,0.0,0.0,2.2
75,,,0.0,0.0,2.2
76,,,0.0,0.0,2.2
77,,,0.0,0.0,2.2
78,901.8009521640897,257.97715338151716,0.0,0.0,2.2
79,912.6923943589151,259.11745908720945,0.0,0.0,2.2
80,930.4401249519359,263.4378542480612,0.0,0.0,2.2
81,943.6012203256363,267.1174934800063,0.0,0.0,2.2
82,953.5736455841683,269.25614022032136,0.0,0.0,2.2
83,963.1204269828822,277.15886312763655,0.0,0.0,2.2
84,964.5933690683509,282.4047271853312,0.0,0.0,2.2
85,963.3764157808371,288.61705902809297,0.0,0.0,2.2
86,956.8458180795876,292.58121444744717,0.0,0.0,2.2
87,944.1679908119315,295.5637332184351,0.0,0.0,2.2
88,945.2913507646288,314.88048977589835,0.0,0.0,2.2
89,939.7737041539682,319.34600352105355,0.0,0.0,2.2
90,930.7612695526906,325.3830206003064,0.0,0.0,2.2
91,927.7189149882607,336.1469250184823,0.0,0.0,2.2
92,921.7096680781241,338.3814233578066,0.0,0.0,2.2
93,924.4057156852525,350.79735892439174,0.0,0.0,2.2
94,930.3290782927911,357.94695749358505,0.0,0.0,2.2
95,941.7136339327781,364.8678263741734,0.0,0.0,2.2
96,947.5524941397417,370.3131252042418,0.0,0.0,2.2
97,954.4596971678392,370.6676459575153,0.0,0.0,2.2
98,961.0047818538266,365.70431108079805,0.0,0.0,2.2
99,975.4618251341492,368.36757865028227,0.0,0.0,2.2
100,981.7884901744039,368.3165598455146,0.0,0.0,2.2
101,991.0518333924499,369.70309773341324,0.0,0.0,2.2
102,997.8632022592532,372.4301183900413,0.0,0.0,2.2
103,1007.7745681183947,377.75765972532105,0.0,0.0,2.2
104,1003.6738749033499,370.12196888169956,0.0,0.0,2.2
105,984.1207613692968,331.74462266230546,0.0,0.0,2.2
106,,,0.0,0.0,2.2
107,,,0.0,0.0,2.2
108,905.7411470530503,201.98893440834817,0.0,0.0,2.2
109,895.152414319743,178.4407025017371,0.0,0.0,2.2
110,889.2439103715146,159.4033995121383,0.0,0.0,2.2
111,885.2749555214143,150.8508292940156,0.0,0.0,2.2
112,874.779158112198,137.57520731124782,0.0,0.0,2.2
113,868.9376364874598,131.10492016004073,0.0,0.0,2.2
114,862.0348788253659,124.87230067090942,0.0,0.0,2.2
115,853.8326083999706,117.6003505627487,0.0,0.0,2.2
116,830.9093683309769,95.63081507581174,0.0,0.0,2.2
117,824.7313505880609,90.84053829563653,0.0,0.0,2.2
118,827.594038351669,99.2631760656471,0.0,0.0,2.2
119,827.6566044332719,101.32379153080072,0.0,0.0,2.2
120,822.4689131626769,96.44756372923328,0.0,0.0,2.2
121,819.8874124944722,95.16840889056274,0.0,0.0,2.2
122,822.4835789070388,96.34461352904493,0.0,0.0,2.2
123,808.9444072682243,80.63904287022528,0.0,0.0,2.2
124,786.742883613656,57.12637886641815,0.0,1.0,2.2
125,772.2214129720322,41.707547025223654,0.0,1.0,2.2
126,758.4830916098313,27.32528002834102,0.0,1.0,2.2
127,753.0859637431737,24.285785525463154,0.0,1.0,2.2
128,743.008727843285,21.44425042446008,0.0,1.0,2.2
129,741.2942850960158,24.782898688101838,0.0,1.0,2.2
130,738.6177273810969,28.164506729170093,0.0,1.0,2.2
131,743.1053586175577,27.547746282996574,0.0,1.0,2.2
132,750.2471366052067,30.452630366364275,0.0,1.0,2.2
133,749.7209023786279,30.268509061803275,0.0,1.0,2.2
134,748.2714745666856,36.181474451720796,0.0,1.0,2.2
135,746.4600165630354,41.78648890863523,0.0,1.0,2.2
136,745.7519437879558,47.52146006368713,0.0,1.0,2.2
137,744.671490708922,53.15169409021742,0.0,1.0,2.2
138,741.5930626189877,57.156578232124886,0.0,1.0,2.2
139,738.8379378823623,61.96941959180576,0.0,1.0,2.2
140,737.7656921846731,65.06762959544658,0.0,1.0,2.2
141,744.7855236019274,70.70225188946502,0.0,1.0,2.2
142,755.1835435481447,79.57161595864515,0.0,0.0,2.2
143,643.7474271597401,590.4856588582434,0.0,0.0,2.2
144,748.1248335036557,77.12575672847727,0.0,0.0,2.2
145,743.0678703128366,72.49041277570431,0.0,1.0,2.2
146,732.0395155042617,58.934964054041856,0.0,1.0,2.2
147,713.5620912294357,53.381982878022576,0.0,1.0,2.2
148,698.7339750779076,59.14981687864881,0.0,1.0,2.2
149,693.8439716158379,60.639906223129145,0.0,1.0,2.2
150,,,0.0,0.0,2.2
151,,,0.0,0.0,2.2
152,,,0.0,0.0,2.2
153,,,0.0,0.0,2.2
154,680.2613448663712,61.86470633437234,0.0,1.0,2.2
155,673.2705086648891,67.14459052003645,0.0,1.0,2.2
156,670.1350876503167,68.92582455506968,0.0,1.0,2.2
157,671.8041081013549,66.04911942164937,0.0,1.0,2.2
158,669.4618928721546,70.14516782049557,0.0,1.0,2.2
159,672.2330925672125,74.62338381972835,0.0,1.0,2.2
160,673.9564870727231,87.48792397690602,0.0,0.0,2.2
161,674.2252453019638,97.02501345303385,0.0,0.0,2.2
162,678.7058599861871,96.10702323921991,0.0,0.0,2.2
163,677.3398592306762,102.09675878944812,0.0,0.0,2.2
164,672.2428242340375,107.30997119951401,0.0,0.0,2.2
165,666.0608889729316,113.73072466710938,0.0,0.0,2.2
166,659.5652935258576,122.5965488067194,0.0,0.0,2.2
167,652.2574170587774,126.76365638751506,0.0,0.0,2.2
168,641.5259120015313,127.78218611525695,0.0,0.0,2.2
169,624.7061582792312,135.41629274984845,0.0,0.0,2.2
170,,,0.0,0.0,2.2
171,576.2228182855359,171.7322612383254,0.0,0.0,2.2
172,553.7959656352516,190.3954964501451,0.0,0.0,2.2
173,531.1966420142132,209.9661077800417,0.0,0.0,2.2
174,506.39657104751865,234.64812651210832,0.0,0.0,2.2
175,489.6932412072816,250.75455491658326,0.0,0.0,2.2
176,743.6542016304463,108.64877081207393,0.0,0.0,2.2
177,,,0.0,0.0,2.2
178,,,0.0,0.0,2.2
179,,,0.0,0.0,2.2
180,375.36129773801275,362.88989232861394,0.0,0.0,2.2
181,361.7677089657922,376.06527233253473,0.0,0.0,2.2
182,343.2664926849747,395.29178848772705,0.0,0.0,2.2
183,328.9138960013305,410.3575705793222,0.0,0.0,2.2
184,310.7634683869275,430.76250431810735,0.0,0.0,2.2
185,283.44672695725126,460.0158225434363,0.0,0.0,2.2
186,257.06971549098984,488.81637975770684,0.0,0.0,2.2
187,230.82609822635277,518.2121784369322,0.0,0.0,2.2
188,198.07837351329755,550.8492877044765,0.0,0.0,2.2
189,177.97060962000367,572.7371652759484,0.0,0.0,2.2
190,156.81036896525498,595.2142015824676,0.0,0.0,2.2
191,150.95867074272815,615.5371389181474,0.0,0.0,2.2
192,154.48711752106598,631.4944905165285,0.0,0.0,2.2
193,153.66562557318835,651.1071066565729,0.0,0.0,2.2
194,150.7956940272476,658.6649796165358,0.0,0.0,2.2
195,149.9038276057781,662.1308199162432,0.0,0.0,2.2
196,153.61326551478524,663.3286037561979,0.0,0.0,2.2
197,154.45684507800195,662.0093979276984,0.0,0.0,2.2
198,149.96723805226492,664.9128201191461,0.0,0.0,2.2
199,144.41764499310943,678.640608963393,0.0,0.0,2.2
200,146.1598887906119,681.2456452430099,0.0,0.0,2.2
201,150.84962764747783,692.2832124197816,0.0,0.0,2.2
202,146.12740329279623,703.4349357068907,0.0,0.0,2.2
203,139.88582945105287,708.8066921248723,0.0,0.0,2.2
204,136.39565675498997,709.948827160496,0.0,0.0,2.2
205,135.3005471415994,717.2935510310327,0.0,0.0,2.2
206,134.7577378521022,727.0359488688158,0.0,0.0,2.2
207,137.28345478146974,737.132670281607,0.0,0.0,2.2
208,136.2010141106185,741.4457580791491,0.0,0.0,2.2
209,131.564705228106,739.3056708256868,0.0,0.0,2.2
210,124.95235861856813,728.8218011322708,0.0,0.0,2.2
211,117.74765973365453,712.0477985554149,0.0,0.0,2.2
212,106.40788385074079,705.230010910285,0.0,0.0,2.2
213,101.92440614135286,702.0150347341175,0.0,0.0,2.2
214,103.19826202358094,694.5596478122936,0.0,0.0,2.2
215,103.20198324737484,687.5542570756039,0.0,0.0,2.2
216,103.24743148502402,684.6261907386648,0.0,0.0,2.2
217,104.15620177906224,678.4982868066678,0.0,0.0,2.2
218,98.70914875981015,683.3830963858587,0.0,0.0,2.2
219,89.78915734538323,689.2462472410527,0.0,0.0,2.2
220,83.12526237020191,694.4633272720345,0.0,0.0,2.2
221,77.19198420627569,704.8977985987842,0.0,0.0,2.2
222,74.60350169778836,708.572453020618,1.0,0.0,2.2
223,74.26840503264884,710.1656188706331,1.0,0.0,2.2
224,74.77971782964877,717.700151742056,1.0,0.0,2.2
225,72.74957616675299,725.0083961319451,1.0,0.0,2.2
226,74.78693072780943,734.2626448097517,1.0,0.0,2.2
227,76.49096195298722,748.6943019712774,1.0,0.0,2.2
228,78.46012156981085,758.0376437058877,0.0,0.0,2.2
229,80.72887488503434,768.6994469880706,0.0,0.0,2.2
230,80.49145993850178,776.4398515632031,0.0,0.0,2.2
231,82.15782394849926,786.3830071644834,0.0,0.0,2.2
232,83.8071951093362,796.8190175360571,0.0,0.0,2.2
233,86.62626940890229,802.4269523202425,0.0,0.0,2.2
234,90.83826321541429,812.3092340339762,0.0,0.0,2.2
235,91.73094499870332,818.3078538512324,0.0,0.0,2.2
236,,,0.0,0.0,2.2
237,,,0.0,0.0,2.2
238,94.67774360033043,824.972544074074,0.0,0.0,2.2
239,79.68104267557547,806.9473974446958,0.0,0.0,2.2
240,64.58128781405006,791.3161018158368,1.0,0.0,2.2
241,49.32979629793446,774.6658486806297,1.0,0.0,2.2
242,39.59292968805919,769.1124641626989,1.0,0.0,2.2
243,34.606746499122664,766.2903673863296,1.0,0.0,2.2
244,30.746324354636595,765.2017452353816,1.0,0.0,2.2
245,30.029098071549,766.5946443884458,1.0,0.0,2.2
246,30.44241767334058,768.2099921784325,1.0,0.0,2.2
247,34.252771741050196,771.262359681207,1.0,0.0,2.2
248,39.09370550322535,775.2527436352158,1.0,0.0,2.2
249,44.821272744707045,781.0631687928673,1.0,0.0,2.2
250,46.82867001008562,783.1750660684062,1.0,0.0,2.2
251,51.218467649982934,787.7875091886486,1.0,0.0,2.2
252,51.9472424976128,788.7064035300751,1.0,0.0,2.2
253,50.650573451130306,786.7421827455803,1.0,0.0,2.2
254,51.20134409213966,786.5703843143718,1.0,0.0,2.2
255,53.30971767628297,788.8048030692813,1.0,0.0,2.2
256,56.08906450984926,792.8896877273506,1.0,0.0,2.2
257,58.553580836704086,795.3104025317434,1.0,0.0,2.2
258,58.96742383758735,795.5852907632121,1.0,0.0,2.2
259,61.39161726971802,797.9810187903972,1.0,0.0,2.2
260,60.88459006793786,797.0650822767242,1.0,0.0,2.2
261,60.31739891510301,796.3612633716791,1.0,0.0,2.2
262,59.75622877981505,795.6739857947745,1.0,0.0,2.2
263,58.904410353564906,795.1263832628989,1.0,0.0,2.2
264,57.61294507565432,794.448304577531,1.0,0.0,2.2
265,55.235361958343226,792.4652576151294,1.0,0.0,2.2
266,55.13018670061771,792.3982116072483,1.0,0.0,2.2
267,55.96069497462379,793.3372095469022,1.0,0.0,2.2
268,55.73606012389341,793.229773343425,1.0,0.0,2.2
269,56.50029721342777,793.9036817540464,1.0,0.0,2.2
270,56.65951174951667,793.8345354809508,1.0,0.0,2.2
271,58.568210802549075,795.3921813653099,1.0,0.0,2.2
272,59.24242483325673,794.9034673418209,1.0,0.0,2.2
273,57.18474791691213,792.3434237076517,1.0,0.0,2.2
274,58.12569924422331,794.6808371446688,1.0,0.0,2.2
275,58.784285759784595,795.3768672627084,1.0,0.0,2.2
276,58.401812184309065,795.2441714062682,1.0,0.0,2.2
277,59.16891087101007,796.124623112875,1.0,0.0,2.2
278,55.99674120815769,791.0077252511484,1.0,0.0,2.2
279,55.343351091364035,790.3152798982409,1.0,0.0,2.2
280,55.699449482458675,790.549423444573,1.0,0.0,2.2
281,52.6702627859945,787.7219288816904,1.0,0.0,2.2
282,54.42237990211793,789.7969628884241,1.0,0.0,2.2
283,54.72840143585055,789.5155184459859,1.0,0.0,2.2
284,57.09927036781075,792.6062885754857,1.0,0.0,2.2
285,68.4837944774014,805.6772509885415,1.0,0.0,2.2
286,72.17780123668697,809.4900924141001,1.0,0.0,2.2
287,85.12512235940774,822.892058317205,0.0,0.0,2.2
288,,,0.0,0.0,2.2
289,,,0.0,0.0,2.2
290,144.5104324490059,882.2674357632752,0.0,0.0,2.2
291,156.36491849669622,894.1739266272693,0.0,0.0,2.2
292,172.82744756479536,909.4138700601977,0.0,0.0,2.2
293,188.42230345741368,920.8835455705948,0.0,0.0,2.2
294,208.49650056093537,934.5622428969239,0.0,0.0,2.2
295,223.9174912457938,942.8119385706643,0.0,0.0,2.2
296,237.21239915552678,948.5421032263764,0.0,0.0,2.2
297,252.2172378053052,953.5745805640676,0.0,0.0,2.2
298,260.5387047093451,950.6378439695708,0.0,0.0,2.2
299,267.993605272721,947.7462749284479,0.0,0.0,2.2
300,279.8956227197569,946.0466807663157,0.0,0.0,2.2
301,286.3208413068068,941.9857613322158,0.0,0.0,2.2
302,286.41674516488143,934.5231308300262,0.0,0.0,2.2
303,292.92247974021825,928.8936104655699,0.0,0.0,2.2
304,286.3747829635944,914.3708044539306,0.0,0.0,2.2
305,283.4181248760773,899.9207019929012,0.0,0.0,2.2
306,280.39478757026086,881.9426381854141,0.0,0.0,2.2
307,283.4197331274058,872.2045071937044,0.0,0.0,2.2
308,286.32470364622685,849.3626669438559,0.0,0.0,2.2
309,292.7491168714385,832.2666153629967,0.0,0.0,2.2
310,292.35503757947424,815.1907480391119,0.0,0.0,2.2
311,289.3325963613516,797.0155397893781,0.0,0.0,2.2
312,295.6561920354207,781.1361697832623,0.0,0.0,2.2
313,299.93322722690215,765.0634459708995,0.0,0.0,2.2
314,306.4298338987165,757.5049534544262,0.0,0.0,2.2
315,295.77457009459516,746.0008360377619,0.0,0.0,2.2
316,282.63301421411285,726.2226738776369,0.0,0.0,2.2
317,277.1731811798701,708.9405973637786,0.0,0.0,2.2
318,267.9556173583783,696.4677949203868,0.0,0.0,2.2
319,273.94849419924645,690.3880754073256,0.0,0.0,2.2
320,277.6861978734161,686.2915653097608,0.0,0.0,2.2
321,300.4118778378476,689.5416259148443,0.0,0.0,2.2
322,320.43606122163067,686.6437571002374,0.0,0.0,2.2
323,329.77790747473995,679.4281781140504,0.0,0.0,2.2
324,339.4214625879616,671.8501325776433,0.0,0.0,2.2
325,353.54213578372105,669.300686383299,0.0,0.0,2.2
326,354.7426022467322,657.0474399742707,0.0,0.0,2.2
327,350.6048297982471,636.1630955013624,0.0,0.0,2.2
328,341.83267083242947,620.7717052231974,0.0,0.0,2.2
329,325.0127796063146,610.9603594954401,0.0,0.0,2.2
330,291.73423277991975,603.6979775936865,0.0,0.0,2.2
331,259.79585148037535,609.9117016987877,0.0,0.0,2.2
332,,,0.0,0.0,2.2
333,210.8082761067204,621.804359015784,0.0,0.0,2.2
334,183.73999279590248,632.3139265977721,0.0,0.0,2.2
335,173.11526279434435,635.1783811750873,0.0,0.0,2.2
336,150.70282702213825,648.8758127511865,0.0,0.0,2.2
337,132.52125604963229,656.3844706662225,0.0,0.0,2.2
338,119.30166876716243,664.8756682717573,0.0,0.0,2.2
339,103.706981290407,663.7261341494211,0.0,0.0,2.2
340,87.74193293297462,671.4538540320357,0.0,0.0,2.2
341,65.14571940691013,694.5448220467193,1.0,0.0,2.2
342,49.626405292249494,709.1369450324636,1.0,0.0,2.2
343,44.96787797488771,715.2692828423438,1.0,0.0,2.2
344,42.13399500671092,718.6442337630433,1.0,0.0,2.2
345,41.283395461761344,719.8240575249926,1.0,0.0,2.2
346,36.60916301179109,723.8045021731516,1.0,0.0,2.2
347,33.450320786214164,722.0513543528062,1.0,0.0,2.2
348,32.18230736441115,716.6838020766781,1.0,0.0,2.2
349,31.063842145337226,716.5043647235284,1.0,0.0,2.2
350,27.973008777931103,718.2724297861619,1.0,0.0,2.2
351,22.570295792124853,723.2640516374408,1.0,0.0,2.2
352,17.775393008818874,725.4635482816783,1.0,0.0,2.2
353,13.96020855638983,727.7853971840802,1.0,0.0,2.2
354,11.510579132228806,726.5356234808517,1.0,0.0,2.2
355,10.711473148636127,727.5032154551963,1.0,0.0,2.2
356,8.153359343261359,730.8118564180855,1.0,0.0,2.2
357,,,0.0,0.0,2.2
358,11.67430878770243,726.6632371575697,1.0,0.0,2.2
359,,,0.0,0.0,2.2
360,,,0.0,0.0,2.2
361,14.121030416913815,726.8984221183154,1.0,0.0,2.2
362,,,0.0,0.0,2.2
363,,,0.0,0.0,2.2
364,,,0.0,0.0,2.2
365,,,0.0,0.0,2.2
366,,,0.0,0.0,2.2
367,,,0.0,0.0,2.2
368,,,0.0,0.0,2.2
369,,,0.0,0.0,2.2
370,,,0.0,0.0,2.2
371,,,0.0,0.0,2.2
372,12.146984872260967,730.900192976897,1.0,0.0,2.2
373,12.052219404130678,731.2246489525047,1.0,0.0,2.2
374,11.822161858382291,730.883988737836,1.0,0.0,2.2
375,,,0.0,0.0,2.2
376,9.44047167906691,730.0156703796002,1.0,0.0,2.2
377,10.365390421503378,729.3969916790711,1.0,0.0,2.2
378,9.924075340730923,729.5985575224101,1.0,0.0,2.2
379,9.273633472176432,730.3299807306983,1.0,0.0,2.2
380,8.789060252295313,731.4479742621616,1.0,0.0,2.2
381,9.411580250969322,731.1399190911067,1.0,0.0,2.2
382,9.362107115770062,731.8543580947444,1.0,0.0,2.2
383,10.841162914563071,729.6433532327891,1.0,0.0,2.2
384,13.089858910026184,725.7501853077423,1.0,0.0,2.2
385,12.815027672914598,725.2890676605114,1.0,0.0,2.2
386,12.386706407415135,726.0770521693532,1.0,0.0,2.2
387,11.425736009068054,726.8394337596138,1.0,0.0,2.2
388,,,0.0,0.0,2.2
389,,,0.0,0.0,2.2
390,,,0.0,0.0,2.2
391,,,0.0,0.0,2.2
392,,,0.0,0.0,2.2
393,,,0.0,0.0,2.2
394,,,0.0,0.0,2.2
395,,,0.0,0.0,2.2
396,,,0.0,0.0,2.2
397,,,0.0,0.0,2.2
398,,,0.0,0.0,2.2
399,,,0.0,0.0,2.2
400,,,0.0,0.0,2.2
401,,,0.0,0.0,2.2
402,,,0.0,0.0,2.2
403,,,0.0,0.0,2.2
404,,,0.0,0.0,2.2
405,,,0.0,0.0,2.2
406,,,0.0,0.0,2.2
407,,,0.0,0.0,2.2
408,,,0.0,0.0,2.2
409,,,0.0,0.0,2.2
410,5.052422402537844,734.365133194659,1.0,0.0,2.2
411,4.253494916247683,736.0463785354356,1.0,0.0,2.2
412,4.087660614428522,738.9723638910175,1.0,0.0,2.2
413,,,0.0,0.0,2.2
414,,,0.0,0.0,2.2
415,,,0.0,0.0,2.2
416,,,0.0,0.0,2.2
417,,,0.0,0.0,2.2
418,,,0.0,0.0,2.2
419,,,0.0,0.0,2.2
420,,,0.0,0.0,2.2
421,,,0.0,0.0,2.2
422,,,0.0,0.0,2.2
423,,,0.0,0.0,2.2
424,,,0.0,0.0,2.2
425,,,0.0,0.0,2.2
426,,,0.0,0.0,2.2
427,,,0.0,0.0,2.2
428,,,0.0,0.0,2.2
